SpectraSuite Data File
++++++++++++++++++++++++++++++++++++
Date: Tue Feb 21 11:38:50 GMT 2017
User: student10
Dark Spectrum Present: Yes
Reference Spectrum Present: No
Number of Sampled Component Spectra: 1
Spectrometers: MAYP112424
Integration Time (usec): 100000 (MAYP112424)
Spectra Averaged: 1 (MAYP112424)
Boxcar Smoothing: 0 (MAYP112424)
Correct for Electrical Dark: No (MAYP112424)
Strobe/Lamp Enabled: No (MAYP112424)
Correct for Detector Non-linearity: No (MAYP112424)
Correct for Stray Light: No (MAYP112424)
Number of Pixels in Processed Spectrum: 2068
>>>>>Begin Processed Spectral Data<<<<<
200.29	5.00
200.76	0.00
201.22	6.00
201.69	1.00
202.15	-4.00
202.62	5.00
203.08	2.00
203.55	-11.00
204.01	-8.00
204.48	9.00
204.94	20.00
205.41	4.00
205.87	9.00
206.34	16.00
206.80	5.00
207.27	-6.00
207.73	-8.00
208.20	-7.00
208.66	1.00
209.12	11.00
209.59	-3.00
210.05	13.00
210.52	10.00
210.98	10.00
211.45	-4.00
211.91	-1.00
212.38	12.00
212.84	1.00
213.31	-1.00
213.77	-29.00
214.23	-13.00
214.70	-15.00
215.16	9.00
215.63	-9.00
216.09	2.00
216.56	-14.00
217.02	-14.00
217.49	13.00
217.95	17.00
218.41	1.00
218.88	2.00
219.34	-3.00
219.81	5.00
220.27	-12.00
220.74	3.00
221.20	3.00
221.66	-15.00
222.13	5.00
222.59	-17.00
223.06	22.00
223.52	-1.00
223.98	2.00
224.45	1.00
224.91	-2.00
225.38	12.00
225.84	-10.00
226.30	2.00
226.77	2.00
227.23	0.00
227.70	2.00
228.16	1.00
228.62	11.00
229.09	5.00
229.55	0.00
230.02	22.00
230.48	24.00
230.94	2.00
231.41	29.00
231.87	17.00
232.33	12.00
232.80	11.00
233.26	16.00
233.73	22.00
234.19	-19.00
234.65	15.00
235.12	17.00
235.58	-2.00
236.04	13.00
236.51	-3.00
236.97	-5.00
237.44	-11.00
237.90	1.00
238.36	24.00
238.83	-7.00
239.29	-8.00
239.75	2.00
240.22	-13.00
240.68	-7.00
241.14	6.00
241.61	7.00
242.07	-20.00
242.53	6.00
243.00	10.00
243.46	5.00
243.92	1.00
244.39	10.00
244.85	-4.00
245.31	-5.00
245.78	4.00
246.24	7.00
246.70	1.00
247.17	11.00
247.63	-9.00
248.09	6.00
248.56	-2.00
249.02	-5.00
249.48	-21.00
249.94	7.00
250.41	-8.00
250.87	2.00
251.33	6.00
251.80	8.00
252.26	23.00
252.72	-12.00
253.19	16.00
253.65	24.00
254.11	12.00
254.57	-13.00
255.04	-4.00
255.50	4.00
255.96	-16.00
256.43	-11.00
256.89	-5.00
257.35	-11.00
257.81	1.00
258.28	-1.00
258.74	5.00
259.20	15.00
259.66	8.00
260.13	29.00
260.59	-5.00
261.05	-2.00
261.52	-1.00
261.98	-7.00
262.44	13.00
262.90	3.00
263.37	6.00
263.83	-3.00
264.29	-17.00
264.75	-9.00
265.22	-5.00
265.68	-22.00
266.14	4.00
266.60	8.00
267.07	-16.00
267.53	-9.00
267.99	10.00
268.45	2.00
268.91	11.00
269.38	-4.00
269.84	9.00
270.30	-1.00
270.76	11.00
271.23	3.00
271.69	-1.00
272.15	3.00
272.61	1.00
273.07	15.00
273.54	1.00
274.00	2.00
274.46	-16.00
274.92	8.00
275.38	2.00
275.85	-1.00
276.31	-3.00
276.77	-6.00
277.23	-10.00
277.69	6.00
278.16	-6.00
278.62	-12.00
279.08	6.00
279.54	0.00
280.00	-15.00
280.47	1.00
280.93	0.00
281.39	7.00
281.85	0.00
282.31	8.00
282.77	-12.00
283.24	-4.00
283.70	-2.00
284.16	-3.00
284.62	-16.00
285.08	-15.00
285.55	3.00
286.01	7.00
286.47	-17.00
286.93	-1.00
287.39	2.00
287.85	0.00
288.31	9.00
288.78	2.00
289.24	14.00
289.70	9.00
290.16	-15.00
290.62	26.00
291.08	11.00
291.54	8.00
292.01	18.00
292.47	-6.00
292.93	-20.00
293.39	-22.00
293.85	-6.00
294.31	22.00
294.77	-11.00
295.23	-9.00
295.70	-2.00
296.16	16.00
296.62	21.00
297.08	5.00
297.54	4.00
298.00	-12.00
298.46	9.00
298.92	7.00
299.39	1.00
299.85	9.00
300.31	5.00
300.77	4.00
301.23	14.00
301.69	-7.00
302.15	15.00
302.61	12.00
303.07	12.00
303.53	-18.00
303.99	-22.00
304.46	6.00
304.92	2.00
305.38	-11.00
305.84	12.00
306.30	10.00
306.76	-10.00
307.22	-3.00
307.68	9.00
308.14	-10.00
308.60	12.00
309.06	-1.00
309.52	10.00
309.98	20.00
310.44	-1.00
310.91	2.00
311.37	7.00
311.83	6.00
312.29	11.00
312.75	-12.00
313.21	27.00
313.67	1.00
314.13	-2.00
314.59	-2.00
315.05	32.00
315.51	21.00
315.97	-3.00
316.43	1.00
316.89	-11.00
317.35	-8.00
317.81	-3.00
318.27	-16.00
318.73	8.00
319.19	5.00
319.65	7.00
320.11	15.00
320.57	4.00
321.03	17.00
321.49	-14.00
321.95	-2.00
322.41	13.00
322.87	-8.00
323.33	11.00
323.79	-18.00
324.25	6.00
324.71	-1.00
325.17	12.00
325.63	-11.00
326.09	19.00
326.55	16.00
327.01	-20.00
327.47	19.00
327.93	0.00
328.39	1.00
328.85	-26.00
329.31	18.00
329.77	0.00
330.23	-10.00
330.69	8.00
331.15	5.00
331.61	4.00
332.07	-7.00
332.53	8.00
332.99	-4.00
333.45	11.00
333.91	-17.00
334.37	-16.00
334.83	-11.00
335.29	2.00
335.75	6.00
336.21	2.00
336.67	4.00
337.13	6.00
337.59	-19.00
338.04	17.00
338.50	4.00
338.96	-2.00
339.42	-3.00
339.88	8.00
340.34	8.00
340.80	5.00
341.26	1.00
341.72	5.00
342.18	11.00
342.64	-11.00
343.10	-2.00
343.56	5.00
344.02	-9.00
344.47	15.00
344.93	6.00
345.39	1.00
345.85	16.00
346.31	-2.00
346.77	4.00
347.23	7.00
347.69	16.00
348.15	4.00
348.61	-4.00
349.07	12.00
349.52	3.00
349.98	-2.00
350.44	6.00
350.90	20.00
351.36	12.00
351.82	1.00
352.28	2.00
352.74	18.00
353.19	-5.00
353.65	13.00
354.11	26.00
354.57	38.00
355.03	12.00
355.49	19.00
355.95	7.00
356.41	-1.00
356.86	37.00
357.32	12.00
357.78	4.00
358.24	17.00
358.70	3.00
359.16	25.00
359.62	10.00
360.07	29.00
360.53	27.00
360.99	24.00
361.45	27.00
361.91	38.00
362.37	11.00
362.82	22.00
363.28	6.00
363.74	24.00
364.20	31.00
364.66	30.00
365.12	21.00
365.57	32.00
366.03	27.00
366.49	11.00
366.95	31.00
367.41	33.00
367.86	29.00
368.32	33.00
368.78	19.00
369.24	21.00
369.70	29.00
370.15	30.00
370.61	33.00
371.07	10.00
371.53	30.00
371.99	36.00
372.44	38.00
372.90	28.00
373.36	22.00
373.82	14.00
374.28	38.00
374.73	36.00
375.19	36.00
375.65	15.00
376.11	46.00
376.56	32.00
377.02	30.00
377.48	45.00
377.94	23.00
378.40	44.00
378.85	53.00
379.31	12.00
379.77	31.00
380.23	32.00
380.68	7.00
381.14	43.00
381.60	32.00
382.06	30.00
382.51	14.00
382.97	21.00
383.43	48.00
383.89	32.00
384.34	35.00
384.80	29.00
385.26	27.00
385.72	18.00
386.17	20.00
386.63	45.00
387.09	33.00
387.54	46.00
388.00	40.00
388.46	30.00
388.92	30.00
389.37	34.00
389.83	36.00
390.29	39.00
390.74	30.00
391.20	35.00
391.66	41.00
392.12	43.00
392.57	40.00
393.03	34.00
393.49	65.00
393.94	39.00
394.40	55.00
394.86	43.00
395.31	44.00
395.77	56.00
396.23	33.00
396.68	30.00
397.14	58.00
397.60	42.00
398.06	14.00
398.51	32.00
398.97	52.00
399.43	43.00
399.88	75.00
400.34	70.00
400.80	81.00
401.25	61.00
401.71	104.00
402.17	79.00
402.62	106.00
403.08	88.00
403.53	107.00
403.99	91.00
404.45	100.00
404.90	95.00
405.36	108.00
405.82	75.00
406.27	91.00
406.73	86.00
407.19	92.00
407.64	105.00
408.10	69.00
408.55	97.00
409.01	88.00
409.47	90.00
409.92	84.00
410.38	123.00
410.84	115.00
411.29	90.00
411.75	100.00
412.20	105.00
412.66	117.00
413.12	108.00
413.57	79.00
414.03	109.00
414.48	93.00
414.94	103.00
415.40	83.00
415.85	107.00
416.31	106.00
416.76	77.00
417.22	92.00
417.68	99.00
418.13	95.00
418.59	92.00
419.04	118.00
419.50	79.00
419.96	92.00
420.41	115.00
420.87	99.00
421.32	103.00
421.78	107.00
422.23	90.00
422.69	104.00
423.14	98.00
423.60	119.00
424.06	115.00
424.51	118.00
424.97	99.00
425.42	73.00
425.88	123.00
426.33	113.00
426.79	106.00
427.24	91.00
427.70	114.00
428.16	99.00
428.61	121.00
429.07	100.00
429.52	76.00
429.98	86.00
430.43	107.00
430.89	119.00
431.34	96.00
431.80	105.00
432.25	115.00
432.71	97.00
433.16	130.00
433.62	117.00
434.07	87.00
434.53	148.00
434.98	132.00
435.44	135.00
435.89	184.00
436.35	150.00
436.80	204.00
437.26	170.00
437.71	151.00
438.17	144.00
438.62	158.00
439.08	115.00
439.53	70.00
439.99	142.00
440.44	120.00
440.90	90.00
441.35	112.00
441.81	129.00
442.26	131.00
442.72	113.00
443.17	150.00
443.63	134.00
444.08	115.00
444.53	147.00
444.99	139.00
445.44	128.00
445.90	114.00
446.35	137.00
446.81	110.00
447.26	95.00
447.72	156.00
448.17	155.00
448.63	126.00
449.08	146.00
449.53	166.00
449.99	165.00
450.44	139.00
450.90	157.00
451.35	138.00
451.81	137.00
452.26	183.00
452.71	134.00
453.17	166.00
453.62	154.00
454.08	148.00
454.53	136.00
454.98	140.00
455.44	151.00
455.89	154.00
456.35	174.00
456.80	179.00
457.25	126.00
457.71	153.00
458.16	142.00
458.62	131.00
459.07	169.00
459.52	167.00
459.98	156.00
460.43	156.00
460.89	184.00
461.34	153.00
461.79	156.00
462.25	179.00
462.70	128.00
463.16	156.00
463.61	138.00
464.06	176.00
464.52	170.00
464.97	146.00
465.42	156.00
465.88	144.00
466.33	176.00
466.78	165.00
467.24	171.00
467.69	123.00
468.14	126.00
468.60	141.00
469.05	160.00
469.50	152.00
469.96	146.00
470.41	156.00
470.86	119.00
471.32	154.00
471.77	166.00
472.22	128.00
472.68	176.00
473.13	147.00
473.58	156.00
474.04	140.00
474.49	163.00
474.94	153.00
475.40	182.00
475.85	186.00
476.30	142.00
476.76	157.00
477.21	191.00
477.66	156.00
478.12	155.00
478.57	165.00
479.02	207.00
479.47	185.00
479.93	158.00
480.38	164.00
480.83	192.00
481.29	174.00
481.74	152.00
482.19	181.00
482.64	168.00
483.10	181.00
483.55	141.00
484.00	174.00
484.46	177.00
484.91	154.00
485.36	164.00
485.81	210.00
486.27	175.00
486.72	149.00
487.17	168.00
487.62	202.00
488.08	178.00
488.53	183.00
488.98	178.00
489.43	179.00
489.89	208.00
490.34	178.00
490.79	173.00
491.24	151.00
491.70	207.00
492.15	186.00
492.60	177.00
493.05	176.00
493.50	166.00
493.96	183.00
494.41	154.00
494.86	172.00
495.31	167.00
495.77	143.00
496.22	172.00
496.67	157.00
497.12	178.00
497.57	161.00
498.03	173.00
498.48	159.00
498.93	157.00
499.38	183.00
499.83	149.00
500.29	195.00
500.74	154.00
501.19	141.00
501.64	152.00
502.09	182.00
502.54	198.00
503.00	172.00
503.45	161.00
503.90	192.00
504.35	141.00
504.80	141.00
505.25	149.00
505.71	175.00
506.16	158.00
506.61	183.00
507.06	165.00
507.51	148.00
507.96	154.00
508.42	163.00
508.87	191.00
509.32	147.00
509.77	167.00
510.22	163.00
510.67	153.00
511.12	200.00
511.58	195.00
512.03	145.00
512.48	153.00
512.93	171.00
513.38	169.00
513.83	201.00
514.28	160.00
514.73	162.00
515.19	137.00
515.64	159.00
516.09	168.00
516.54	148.00
516.99	153.00
517.44	138.00
517.89	138.00
518.34	138.00
518.79	165.00
519.25	140.00
519.70	135.00
520.15	165.00
520.60	200.00
521.05	169.00
521.50	151.00
521.95	192.00
522.40	206.00
522.85	181.00
523.30	184.00
523.75	159.00
524.20	185.00
524.66	169.00
525.11	211.00
525.56	144.00
526.01	171.00
526.46	165.00
526.91	160.00
527.36	168.00
527.81	133.00
528.26	191.00
528.71	124.00
529.16	192.00
529.61	181.00
530.06	146.00
530.51	201.00
530.96	163.00
531.41	154.00
531.86	165.00
532.31	171.00
532.76	172.00
533.21	158.00
533.66	180.00
534.11	229.00
534.56	204.00
535.01	175.00
535.46	169.00
535.91	162.00
536.36	195.00
536.82	213.00
537.27	173.00
537.72	178.00
538.17	216.00
538.62	175.00
539.07	190.00
539.51	229.00
539.96	220.00
540.41	212.00
540.86	211.00
541.31	242.00
541.76	257.00
542.21	224.00
542.66	242.00
543.11	248.00
543.56	298.00
544.01	310.00
544.46	271.00
544.91	327.00
545.36	263.00
545.81	271.00
546.26	304.00
546.71	292.00
547.16	329.00
547.61	256.00
548.06	275.00
548.51	222.00
548.96	195.00
549.41	164.00
549.86	200.00
550.31	214.00
550.76	216.00
551.21	199.00
551.65	201.00
552.10	229.00
552.55	197.00
553.00	196.00
553.45	255.00
553.90	249.00
554.35	203.00
554.80	237.00
555.25	249.00
555.70	202.00
556.15	153.00
556.60	183.00
557.04	170.00
557.49	218.00
557.94	179.00
558.39	210.00
558.84	182.00
559.29	208.00
559.74	212.00
560.19	169.00
560.64	159.00
561.08	202.00
561.53	236.00
561.98	187.00
562.43	190.00
562.88	160.00
563.33	224.00
563.78	208.00
564.23	212.00
564.67	233.00
565.12	203.00
565.57	219.00
566.02	178.00
566.47	218.00
566.92	216.00
567.37	177.00
567.81	189.00
568.26	203.00
568.71	160.00
569.16	177.00
569.61	183.00
570.06	233.00
570.50	164.00
570.95	188.00
571.40	193.00
571.85	192.00
572.30	190.00
572.75	178.00
573.19	168.00
573.64	193.00
574.09	221.00
574.54	229.00
574.99	206.00
575.43	184.00
575.88	207.00
576.33	149.00
576.78	151.00
577.23	235.00
577.67	212.00
578.12	174.00
578.57	172.00
579.02	219.00
579.47	236.00
579.91	172.00
580.36	203.00
580.81	223.00
581.26	204.00
581.70	203.00
582.15	194.00
582.60	233.00
583.05	181.00
583.50	186.00
583.94	211.00
584.39	215.00
584.84	175.00
585.29	197.00
585.73	211.00
586.18	164.00
586.63	185.00
587.08	203.00
587.52	232.00
587.97	259.00
588.42	213.00
588.87	220.00
589.31	191.00
589.76	192.00
590.21	178.00
590.65	172.00
591.10	186.00
591.55	194.00
592.00	193.00
592.44	201.00
592.89	183.00
593.34	187.00
593.78	146.00
594.23	155.00
594.68	221.00
595.13	161.00
595.57	176.00
596.02	199.00
596.47	179.00
596.91	203.00
597.36	156.00
597.81	213.00
598.25	169.00
598.70	199.00
599.15	205.00
599.59	203.00
600.04	192.00
600.49	187.00
600.94	202.00
601.38	213.00
601.83	207.00
602.28	186.00
602.72	175.00
603.17	190.00
603.61	195.00
604.06	201.00
604.51	187.00
604.95	201.00
605.40	214.00
605.85	188.00
606.29	214.00
606.74	201.00
607.19	237.00
607.63	158.00
608.08	183.00
608.53	204.00
608.97	217.00
609.42	197.00
609.86	293.00
610.31	322.00
610.76	242.00
611.20	325.00
611.65	312.00
612.10	314.00
612.54	365.00
612.99	356.00
613.43	375.00
613.88	327.00
614.33	318.00
614.77	314.00
615.22	289.00
615.66	275.00
616.11	277.00
616.55	263.00
617.00	261.00
617.45	270.00
617.89	263.00
618.34	236.00
618.78	250.00
619.23	255.00
619.68	223.00
620.12	244.00
620.57	255.00
621.01	240.00
621.46	278.00
621.90	225.00
622.35	295.00
622.79	251.00
623.24	266.00
623.69	229.00
624.13	270.00
624.58	267.00
625.02	267.00
625.47	296.00
625.91	334.00
626.36	380.00
626.80	455.00
627.25	524.00
627.69	663.00
628.14	754.00
628.58	781.00
629.03	814.00
629.47	766.00
629.92	711.00
630.36	649.00
630.81	619.00
631.25	565.00
631.70	683.00
632.14	733.00
632.59	861.00
633.03	1095.00
633.48	1593.00
633.92	2340.00
634.37	3487.00
634.81	5350.00
635.26	6841.00
635.70	12156.00
636.15	20457.00
636.59	30353.00
637.04	44388.00
637.48	54806.00
637.93	57156.00
638.37	55541.00
638.82	52030.00
639.26	41410.00
639.71	29848.00
640.15	12806.00
640.60	3720.00
641.04	964.00
641.48	510.00
641.93	381.00
642.37	325.00
642.82	272.00
643.26	283.00
643.71	275.00
644.15	199.00
644.60	244.00
645.04	216.00
645.48	192.00
645.93	206.00
646.37	218.00
646.82	206.00
647.26	180.00
647.70	222.00
648.15	181.00
648.59	197.00
649.04	201.00
649.48	186.00
649.92	229.00
650.37	166.00
650.81	199.00
651.26	164.00
651.70	210.00
652.14	178.00
652.59	207.00
653.03	157.00
653.48	188.00
653.92	164.00
654.36	163.00
654.81	176.00
655.25	166.00
655.70	168.00
656.14	201.00
656.58	171.00
657.03	164.00
657.47	146.00
657.91	149.00
658.36	177.00
658.80	146.00
659.24	170.00
659.69	153.00
660.13	194.00
660.57	196.00
661.02	170.00
661.46	197.00
661.90	189.00
662.35	168.00
662.79	175.00
663.23	144.00
663.68	161.00
664.12	224.00
664.56	154.00
665.01	183.00
665.45	172.00
665.89	209.00
666.34	193.00
666.78	187.00
667.22	162.00
667.67	183.00
668.11	192.00
668.55	181.00
668.99	147.00
669.44	181.00
669.88	132.00
670.32	175.00
670.77	169.00
671.21	189.00
671.65	179.00
672.09	195.00
672.54	135.00
672.98	136.00
673.42	192.00
673.87	169.00
674.31	169.00
674.75	183.00
675.19	143.00
675.64	169.00
676.08	165.00
676.52	194.00
676.96	162.00
677.41	135.00
677.85	205.00
678.29	168.00
678.73	168.00
679.18	169.00
679.62	179.00
680.06	168.00
680.50	145.00
680.94	148.00
681.39	159.00
681.83	168.00
682.27	157.00
682.71	169.00
683.16	168.00
683.60	112.00
684.04	166.00
684.48	164.00
684.92	179.00
685.37	145.00
685.81	148.00
686.25	173.00
686.69	150.00
687.13	113.00
687.58	143.00
688.02	103.00
688.46	99.00
688.90	142.00
689.34	120.00
689.78	95.00
690.23	141.00
690.67	144.00
691.11	126.00
691.55	128.00
691.99	113.00
692.43	119.00
692.88	153.00
693.32	128.00
693.76	131.00
694.20	176.00
694.64	121.00
695.08	156.00
695.53	143.00
695.97	157.00
696.41	150.00
696.85	111.00
697.29	154.00
697.73	132.00
698.17	160.00
698.61	125.00
699.06	152.00
699.50	151.00
699.94	137.00
700.38	149.00
700.82	160.00
701.26	166.00
701.70	141.00
702.14	177.00
702.58	158.00
703.03	132.00
703.47	133.00
703.91	134.00
704.35	158.00
704.79	157.00
705.23	168.00
705.67	159.00
706.11	172.00
706.55	158.00
706.99	145.00
707.43	169.00
707.87	160.00
708.32	175.00
708.76	171.00
709.20	179.00
709.64	193.00
710.08	143.00
710.52	185.00
710.96	164.00
711.40	182.00
711.84	131.00
712.28	166.00
712.72	169.00
713.16	124.00
713.60	167.00
714.04	163.00
714.48	150.00
714.92	156.00
715.36	148.00
715.80	124.00
716.24	97.00
716.68	150.00
717.12	118.00
717.56	166.00
718.00	135.00
718.44	135.00
718.88	112.00
719.32	120.00
719.76	90.00
720.20	85.00
720.64	145.00
721.08	114.00
721.52	120.00
721.96	89.00
722.40	156.00
722.84	124.00
723.28	99.00
723.72	135.00
724.16	124.00
724.60	121.00
725.04	114.00
725.48	131.00
725.92	122.00
726.36	119.00
726.80	81.00
727.24	110.00
727.68	137.00
728.12	121.00
728.56	136.00
729.00	115.00
729.44	111.00
729.88	127.00
730.32	103.00
730.76	130.00
731.20	134.00
731.63	115.00
732.07	143.00
732.51	155.00
732.95	100.00
733.39	135.00
733.83	86.00
734.27	132.00
734.71	161.00
735.15	104.00
735.59	132.00
736.03	167.00
736.47	143.00
736.90	140.00
737.34	127.00
737.78	105.00
738.22	103.00
738.66	130.00
739.10	145.00
739.54	144.00
739.98	142.00
740.42	143.00
740.85	124.00
741.29	126.00
741.73	147.00
742.17	163.00
742.61	146.00
743.05	147.00
743.49	132.00
743.92	149.00
744.36	124.00
744.80	144.00
745.24	104.00
745.68	134.00
746.12	143.00
746.56	128.00
746.99	160.00
747.43	134.00
747.87	139.00
748.31	154.00
748.75	152.00
749.19	153.00
749.62	153.00
750.06	88.00
750.50	139.00
750.94	112.00
751.38	154.00
751.81	128.00
752.25	149.00
752.69	142.00
753.13	120.00
753.57	143.00
754.00	172.00
754.44	133.00
754.88	146.00
755.32	133.00
755.76	113.00
756.19	125.00
756.63	133.00
757.07	117.00
757.51	146.00
757.94	149.00
758.38	146.00
758.82	120.00
759.26	128.00
759.70	79.00
760.13	90.00
760.57	83.00
761.01	37.00
761.45	69.00
761.88	57.00
762.32	78.00
762.76	55.00
763.20	63.00
763.63	52.00
764.07	64.00
764.51	72.00
764.94	38.00
765.38	66.00
765.82	56.00
766.26	74.00
766.69	94.00
767.13	100.00
767.57	105.00
768.01	149.00
768.44	81.00
768.88	108.00
769.32	89.00
769.75	101.00
770.19	114.00
770.63	144.00
771.06	156.00
771.50	92.00
771.94	129.00
772.37	126.00
772.81	119.00
773.25	101.00
773.69	131.00
774.12	139.00
774.56	103.00
775.00	125.00
775.43	143.00
775.87	100.00
776.31	119.00
776.74	141.00
777.18	148.00
777.61	132.00
778.05	126.00
778.49	100.00
778.92	130.00
779.36	112.00
779.80	111.00
780.23	114.00
780.67	142.00
781.11	124.00
781.54	120.00
781.98	130.00
782.41	114.00
782.85	113.00
783.29	100.00
783.72	140.00
784.16	115.00
784.60	137.00
785.03	132.00
785.47	120.00
785.90	121.00
786.34	116.00
786.78	99.00
787.21	88.00
787.65	118.00
788.08	96.00
788.52	102.00
788.96	90.00
789.39	109.00
789.83	87.00
790.26	118.00
790.70	117.00
791.13	97.00
791.57	88.00
792.00	81.00
792.44	132.00
792.88	109.00
793.31	114.00
793.75	116.00
794.18	103.00
794.62	91.00
795.05	97.00
795.49	92.00
795.92	108.00
796.36	111.00
796.80	111.00
797.23	111.00
797.67	99.00
798.10	81.00
798.54	107.00
798.97	85.00
799.41	106.00
799.84	98.00
800.28	86.00
800.71	95.00
801.15	127.00
801.58	95.00
802.02	84.00
802.45	120.00
802.89	90.00
803.32	103.00
803.76	115.00
804.19	65.00
804.63	106.00
805.06	88.00
805.50	92.00
805.93	119.00
806.37	70.00
806.80	116.00
807.23	104.00
807.67	85.00
808.10	63.00
808.54	115.00
808.97	71.00
809.41	78.00
809.84	101.00
810.28	100.00
810.71	59.00
811.15	85.00
811.58	84.00
812.01	88.00
812.45	99.00
812.88	73.00
813.32	92.00
813.75	103.00
814.19	80.00
814.62	65.00
815.05	86.00
815.49	38.00
815.92	71.00
816.36	51.00
816.79	72.00
817.22	50.00
817.66	74.00
818.09	64.00
818.53	86.00
818.96	69.00
819.39	66.00
819.83	86.00
820.26	96.00
820.70	70.00
821.13	81.00
821.56	70.00
822.00	78.00
822.43	77.00
822.86	90.00
823.30	95.00
823.73	67.00
824.17	60.00
824.60	62.00
825.03	62.00
825.47	80.00
825.90	80.00
826.33	77.00
826.77	90.00
827.20	83.00
827.63	84.00
828.07	58.00
828.50	50.00
828.93	101.00
829.37	91.00
829.80	33.00
830.23	56.00
830.67	72.00
831.10	111.00
831.53	79.00
831.97	67.00
832.40	83.00
832.83	90.00
833.26	69.00
833.70	54.00
834.13	71.00
834.56	61.00
835.00	87.00
835.43	61.00
835.86	86.00
836.29	102.00
836.73	89.00
837.16	87.00
837.59	87.00
838.03	66.00
838.46	60.00
838.89	96.00
839.32	82.00
839.76	95.00
840.19	55.00
840.62	67.00
841.05	90.00
841.49	89.00
841.92	73.00
842.35	67.00
842.78	67.00
843.22	99.00
843.65	63.00
844.08	68.00
844.51	85.00
844.95	74.00
845.38	70.00
845.81	66.00
846.24	82.00
846.67	48.00
847.11	69.00
847.54	67.00
847.97	91.00
848.40	58.00
848.83	52.00
849.27	93.00
849.70	85.00
850.13	63.00
850.56	81.00
850.99	50.00
851.43	69.00
851.86	73.00
852.29	62.00
852.72	93.00
853.15	104.00
853.58	59.00
854.02	57.00
854.45	70.00
854.88	68.00
855.31	38.00
855.74	64.00
856.17	82.00
856.61	64.00
857.04	64.00
857.47	70.00
857.90	88.00
858.33	75.00
858.76	72.00
859.19	83.00
859.63	80.00
860.06	76.00
860.49	63.00
860.92	105.00
861.35	86.00
861.78	25.00
862.21	66.00
862.64	80.00
863.07	71.00
863.51	59.00
863.94	41.00
864.37	91.00
864.80	94.00
865.23	91.00
865.66	49.00
866.09	64.00
866.52	93.00
866.95	70.00
867.38	72.00
867.81	81.00
868.25	74.00
868.68	84.00
869.11	65.00
869.54	74.00
869.97	101.00
870.40	66.00
870.83	58.00
871.26	59.00
871.69	77.00
872.12	51.00
872.55	73.00
872.98	110.00
873.41	89.00
873.84	70.00
874.27	76.00
874.70	100.00
875.13	54.00
875.56	40.00
875.99	78.00
876.42	55.00
876.85	101.00
877.28	97.00
877.71	71.00
878.14	52.00
878.57	80.00
879.00	64.00
879.43	50.00
879.86	56.00
880.29	64.00
880.72	111.00
881.15	62.00
881.58	49.00
882.01	77.00
882.44	65.00
882.87	98.00
883.30	104.00
883.73	77.00
884.16	52.00
884.59	63.00
885.02	105.00
885.45	54.00
885.88	46.00
886.31	88.00
886.74	76.00
887.17	65.00
887.60	60.00
888.03	69.00
888.46	49.00
888.89	67.00
889.32	63.00
889.75	80.00
890.18	38.00
890.60	107.00
891.03	62.00
891.46	70.00
891.89	58.00
892.32	58.00
892.75	88.00
893.18	51.00
893.61	71.00
894.04	42.00
894.47	60.00
894.90	56.00
895.32	54.00
895.75	53.00
896.18	71.00
896.61	49.00
897.04	57.00
897.47	47.00
897.90	48.00
898.33	36.00
898.75	64.00
899.18	68.00
899.61	48.00
900.04	48.00
900.47	72.00
900.90	51.00
901.33	50.00
901.75	45.00
902.18	66.00
902.61	28.00
903.04	30.00
903.47	61.00
903.90	76.00
904.32	40.00
904.75	37.00
905.18	40.00
905.61	19.00
906.04	72.00
906.47	49.00
906.89	53.00
907.32	11.00
907.75	60.00
908.18	37.00
908.61	43.00
909.03	34.00
909.46	23.00
909.89	46.00
910.32	46.00
910.75	49.00
911.17	49.00
911.60	52.00
912.03	34.00
912.46	42.00
912.89	7.00
913.31	43.00
913.74	44.00
914.17	35.00
914.60	31.00
915.02	2.00
915.45	35.00
915.88	33.00
916.31	56.00
916.73	50.00
917.16	54.00
917.59	44.00
918.02	43.00
918.44	49.00
918.87	36.00
919.30	12.00
919.72	57.00
920.15	58.00
920.58	51.00
921.01	43.00
921.43	33.00
921.86	41.00
922.29	46.00
922.71	64.00
923.14	37.00
923.57	27.00
924.00	47.00
924.42	42.00
924.85	51.00
925.28	20.00
925.70	38.00
926.13	19.00
926.56	31.00
926.98	30.00
927.41	50.00
927.84	41.00
928.26	35.00
928.69	21.00
929.12	28.00
929.54	30.00
929.97	47.00
930.40	16.00
930.82	31.00
931.25	24.00
931.68	29.00
932.10	19.00
932.53	29.00
932.96	11.00
933.38	9.00
933.81	19.00
934.23	29.00
934.66	13.00
935.09	19.00
935.51	18.00
935.94	22.00
936.37	9.00
936.79	15.00
937.22	6.00
937.64	4.00
938.07	28.00
938.50	-12.00
938.92	27.00
939.35	45.00
939.77	16.00
940.20	18.00
940.62	28.00
941.05	15.00
941.48	22.00
941.90	43.00
942.33	9.00
942.75	44.00
943.18	19.00
943.60	27.00
944.03	7.00
944.46	30.00
944.88	18.00
945.31	18.00
945.73	20.00
946.16	30.00
946.58	38.00
947.01	10.00
947.43	11.00
947.86	30.00
948.28	13.00
948.71	31.00
949.14	26.00
949.56	15.00
949.99	18.00
950.41	25.00
950.84	-10.00
951.26	29.00
951.69	18.00
952.11	22.00
952.54	21.00
952.96	27.00
953.39	13.00
953.81	22.00
954.24	25.00
954.66	24.00
955.09	20.00
955.51	5.00
955.93	19.00
956.36	37.00
956.78	20.00
957.21	14.00
957.63	3.00
958.06	27.00
958.48	-2.00
958.91	46.00
959.33	50.00
959.76	9.00
960.18	27.00
960.60	40.00
961.03	33.00
961.45	34.00
961.88	13.00
962.30	10.00
962.73	53.00
963.15	29.00
963.57	31.00
964.00	1.00
964.42	41.00
964.85	40.00
965.27	14.00
965.70	21.00
966.12	28.00
966.54	26.00
966.97	25.00
967.39	10.00
967.82	42.00
968.24	32.00
968.66	20.00
969.09	34.00
969.51	19.00
969.93	24.00
970.36	25.00
970.78	28.00
971.21	31.00
971.63	14.00
972.05	48.00
972.48	31.00
972.90	21.00
973.32	29.00
973.75	27.00
974.17	46.00
974.59	27.00
975.02	8.00
975.44	34.00
975.86	34.00
976.29	50.00
976.71	25.00
977.13	16.00
977.56	18.00
977.98	7.00
978.40	34.00
978.83	27.00
979.25	22.00
979.67	22.00
980.10	37.00
980.52	50.00
980.94	25.00
981.36	5.00
981.79	30.00
982.21	29.00
982.63	23.00
983.06	12.00
983.48	34.00
983.90	25.00
984.32	53.00
984.75	19.00
985.17	14.00
985.59	30.00
986.01	24.00
986.44	57.00
986.86	38.00
987.28	42.00
987.70	34.00
988.13	-4.00
988.55	34.00
988.97	51.00
989.39	31.00
989.82	37.00
990.24	26.00
990.66	20.00
991.08	18.00
991.51	44.00
991.93	56.00
992.35	40.00
992.77	21.00
993.19	31.00
993.62	21.00
994.04	26.00
994.46	8.00
994.88	18.00
995.30	41.00
995.73	-10.00
996.15	31.00
996.57	29.00
996.99	29.00
997.41	41.00
997.84	7.00
998.26	54.00
998.68	50.00
999.10	18.00
999.52	6.00
999.94	45.00
1000.37	31.00
1000.79	32.00
1001.21	23.00
1001.63	7.00
1002.05	41.00
1002.47	44.00
1002.89	-1.00
1003.32	26.00
1003.74	27.00
1004.16	46.00
1004.58	12.00
1005.00	43.00
1005.42	20.00
1005.84	31.00
1006.26	34.00
1006.68	17.00
1007.11	37.00
1007.53	4.00
1007.95	42.00
1008.37	14.00
1008.79	13.00
1009.21	12.00
1009.63	51.00
1010.05	21.00
1010.47	25.00
1010.89	30.00
1011.31	-10.00
1011.74	25.00
1012.16	21.00
1012.58	29.00
1013.00	31.00
1013.42	33.00
1013.84	26.00
1014.26	31.00
1014.68	29.00
1015.10	20.00
1015.52	54.00
1015.94	19.00
1016.36	42.00
1016.78	40.00
1017.20	24.00
1017.62	54.00
1018.04	29.00
1018.46	30.00
1018.88	27.00
1019.30	34.00
1019.72	20.00
1020.14	23.00
1020.56	49.00
1020.98	-2.00
1021.40	31.00
1021.82	26.00
1022.24	22.00
1022.66	9.00
1023.08	15.00
1023.50	31.00
1023.92	6.00
1024.34	27.00
1024.76	22.00
1025.18	26.00
1025.60	20.00
1026.02	33.00
1026.44	14.00
1026.86	7.00
1027.28	10.00
1027.70	23.00
1028.12	19.00
1028.54	13.00
1028.96	22.00
1029.38	32.00
1029.80	2.00
1030.22	21.00
1030.64	12.00
1031.06	31.00
1031.48	28.00
1031.89	24.00
1032.31	11.00
1032.73	15.00
1033.15	18.00
1033.57	16.00
1033.99	9.00
1034.41	17.00
1034.83	-13.00
1035.25	9.00
1035.67	-5.00
1036.09	7.00
1036.50	33.00
1036.92	27.00
1037.34	7.00
1037.76	23.00
1038.18	24.00
1038.60	11.00
1039.02	11.00
1039.44	15.00
1039.85	13.00
1040.27	7.00
1040.69	35.00
1041.11	8.00
1041.53	1.00
1041.95	9.00
1042.37	16.00
1042.78	28.00
1043.20	30.00
1043.62	10.00
1044.04	14.00
1044.46	19.00
1044.88	2.00
1045.29	27.00
1045.71	-1.00
1046.13	19.00
1046.55	15.00
1046.97	13.00
1047.38	10.00
1047.80	7.00
1048.22	33.00
1048.64	32.00
1049.06	26.00
1049.47	23.00
1049.89	10.00
1050.31	12.00
1050.73	15.00
1051.15	3.00
1051.56	6.00
1051.98	1.00
1052.40	10.00
1052.82	18.00
1053.23	-2.00
1053.65	7.00
1054.07	11.00
1054.49	-2.00
1054.90	10.00
1055.32	22.00
1055.74	4.00
1056.16	3.00
1056.57	12.00
1056.99	13.00
1057.41	28.00
1057.83	10.00
1058.24	34.00
1058.66	27.00
1059.08	9.00
1059.49	-11.00
1059.91	5.00
1060.33	23.00
1060.75	21.00
1061.16	-6.00
1061.58	3.00
1062.00	-8.00
1062.41	13.00
1062.83	-3.00
1063.25	10.00
1063.66	23.00
1064.08	-13.00
1064.50	18.00
1064.92	20.00
1065.33	-6.00
1065.75	-8.00
1066.17	22.00
1066.58	1.00
1067.00	4.00
1067.41	12.00
1067.83	12.00
1068.25	-16.00
1068.66	8.00
1069.08	7.00
1069.50	-3.00
1069.91	10.00
1070.33	31.00
1070.75	13.00
1071.16	-8.00
1071.58	-3.00
1071.99	-1.00
1072.41	3.00
1072.83	7.00
1073.24	27.00
1073.66	11.00
1074.08	-4.00
1074.49	9.00
1074.91	-2.00
1075.32	23.00
1075.74	-6.00
1076.16	-3.00
1076.57	18.00
1076.99	21.00
1077.40	4.00
1077.82	21.00
1078.23	19.00
1078.65	5.00
1079.07	1.00
1079.48	30.00
1079.90	-7.00
1080.31	1.00
1080.73	-18.00
1081.14	19.00
1081.56	8.00
1081.97	2.00
1082.39	20.00
1082.81	-5.00
1083.22	20.00
1083.64	5.00
1084.05	11.00
1084.47	-10.00
1084.88	3.00
1085.30	0.00
1085.71	-5.00
1086.13	1.00
1086.54	0.00
1086.96	-3.00
1087.37	13.00
1087.79	19.00
1088.20	-6.00
1088.62	8.00
1089.03	19.00
1089.45	23.00
1089.86	24.00
1090.28	0.00
1090.69	6.00
1091.11	1.00
1091.52	20.00
1091.94	-18.00
1092.35	3.00
1092.76	-8.00
1093.18	9.00
1093.59	10.00
1094.01	2.00
1094.42	17.00
1094.84	1.00
1095.25	5.00
1095.67	22.00
1096.08	1.00
1096.49	13.00
1096.91	10.00
1097.32	2.00
1097.74	-1.00
1098.15	-7.00
1098.57	-9.00
1098.98	-6.00
1099.39	5.00
1099.81	-7.00
1100.22	2.00
1100.64	-8.00
1101.05	7.00
1101.46	2.00
1101.88	-12.00
1102.29	1.00
1102.71	-18.00
1103.12	6.00
1103.53	-9.00
1103.95	10.00
1104.36	-3.00
1104.77	16.00
1105.19	4.00
1105.60	1.00
1106.01	0.00
1106.43	3.00
1106.84	-6.00
1107.26	-6.00
1107.67	-5.00
1108.08	12.00
1108.50	4.00
1108.91	1.00
1109.32	-4.00
1109.74	11.00
1110.15	26.00
1110.56	8.00
1110.97	-1.00
1111.39	-16.00
1111.80	6.00
1112.21	0.00
1112.63	-3.00
1113.04	0.00
>>>>>End Processed Spectral Data<<<<<
